##TITLE=agua_1H_20161209_005
##JCAMP-DX=5.01 $$ Nanalysis NMReady v2.0.5.1
##DATA TYPE=NMR FID
##DATA CLASS=NTUPLES
##ORIGIN=Nanalysis Corp.
##OWNER=Kenyon
##LONG DATE=2016/12/09 07:54:21-0700
##SPECTROMETER/DATA SYSTEM=NMReady 60P
##INSTRUMENTAL PARAMETERS=^1H
##TEMPERATURE=29.991251
##PRESSURE=1.000000  $$ Bar
##RESOLUTION=0.00001999999949
##SAMPLE DESCRIPTION=Brief description of the sample here
##.OBSERVE FREQUENCY=59.31434626628609
##.OBSERVE NUCLEUS=^1H
##.SOLVENT NAME=Chloroform-d
##.ACQUISITION MODE=SIMULTANEOUS
##.SHIFT REFERENCE=INTERNAL, Chloroform-d, 1024, 5.00000000000000
##.SOLVENT REFERENCE=5.00000000000000
##.DELAY=(0.000000,0.000000)
##.FIELD=1.409112  $$ Tesla
##.OBSERVE 90=13.150000
##.ACQUISITION TIME=90.30656051635742
##.ZERO FILL=0
##.AVERAGES=16
##.DIGITISER RES=24
##.SPINNING RATE=0.000000
##.PHASE 0=0.00000000000000
##.PHASE 1=5.00000000000000
$$ NMReady specific parameters
##$SCANS=16
##$SCAN DELAY=1.025280
##$TOTAL DURATION=90.306561
##$X_PULSE=14.800000
##$RECVR_GAIN=17
##$SWEEP WIDTH=10.000000
##$RELAXATIONDELAY=1.178240
##$ZEROING=7.000000
##$APODIZATION=0.100000
##$PHASECORRECTION=0.000000,5.000000
##$DT=0.000020
##$LOCKOFFSET=7.260000
##$SPECTRALCENTER=5.000000
##$DECIMATION=84
##$INTEGRALS IS MANUAL=False
##$INTEGRALS REFERENCE ENERGY=195861.200488563423
##$RDC ENABLED=1
$$ End of NMReady specific parameters
$$ Bruker specific parameters
$$ --------------------------
##$DATE=1481295261
##$SI= 16384
##$TDeff= 2048
##$SFO1= 59.31434626628609
##$O1= 296.57173133143044
##$SF= 59.31404969455475
##$BF1= 59.31404969455475
##$AQ= 3.43895991312456
##$SWH= 595.23811027507463
##$SW= 10.03531435047450
##$SR= 0.00000000000000
##$OFFSET= 10.01770726390544
##$FIDRES= 0.29064360853275
##$O1P= 5.00000000000000
##$TD= 4096
##$DW= 839.99997877981514
##$SPECTYP= PROTON
##$NS= 16
##$DR= 24
##$PHC0= 2.50000000000000
##$PHC1= -5.00000000000000
##$PH_mod= 1
##$WDW= 1
##$LB= 0.10000000149012
$$ End of Bruker specific parameters
$$ ---------------------------------
##NPOINTS=2048
##DELTAX=0.0016800000
##NTUPLES=NMR FID
##VAR_NAME=TIME,FID/REAL,FID/IMAG,PAGE NUMBER
##SYMBOL=X,R,I,N
##VAR_TYPE=INDEPENDENT,DEPENDENT,DEPENDENT,PAGE
##VAR_FORM=AFFN,AFFN,AFFN,AFFN
##VAR_DIM=2048,2048,2048,2
##UNITS=SECONDS,ARBITRARY UNITS,ARBITRARY UNITS,
##FIRST=0.000000,8318.599885,-977.768908,1
##LAST=3.438960,-0.001294,0.001340,2
##MIN=0.000000,-3548.212731,-3611.960846,1
##MAX=3.438960,8318.599885,4067.605001,2
##FACTOR=0.00167999995755963027,0.00000387365109991288,0.00000387365109991288,1
##PAGE=N=1
##DATA TABLE= (X++(R..R)), XYDATA
      0.00000000     2147483000     -658651758     -701774095      423617096
      4.00000000      -90654146      564339341     -223180393     -915986659
      8.00000000      811738834      279402059     -438045488       -5194225
     12.00000000     -238932722      470141204      202459019     -698651381
     16.00000000      186007479      204286548       53782345       65256962
     20.00000000     -565191705      275052214      483711519     -453706344
     24.00000000       -3045335      -23955128        2533561      461256942
     28.00000000     -417681060     -305784981      504408050      -17961674
     32.00000000     -116990254      -52958344     -166935146      320972342
     36.00000000      141559906     -391548034      -54534202      283371329
     40.00000000       81724566     -155765714     -133744206       31095872
     44.00000000      222579001       60074808     -351213858      -10177673
     48.00000000      321584140      -23655611     -144722256     -112314236
     52.00000000       73467199      281926170     -168948263     -213014681
     56.00000000      108652063      130686908       98384183     -253875456
     60.00000000     -129908600      368551161      -71346310     -113290168
     64.00000000        -369043     -137253830      358295453      -40804187
     68.00000000     -458563891      347481298       62561733     -137085593
     72.00000000      144800906     -332737053      178873641      366324736
     76.00000000     -464219194       30972425      151274268      -74721381
     80.00000000      231731208     -279243889     -141856569      390619556
     84.00000000     -137418458      -33700920      -29642373     -139795388
     88.00000000      347234101     -114663750     -234535338      230079754
     92.00000000     -112372169      100173543       54328341     -333820346
     96.00000000      288080327       83261617     -279188785      185811474
    100.00000000      -90378225        4435941      224301140     -315448420
    104.00000000       34475951      238297004     -171723188       29049875
    108.00000000      -32691473      -59087789      215176835     -115206811
    112.00000000     -127009340      110638760       17678343       33247074
    116.00000000      -77477840      -81900373      150633732        2645300
    120.00000000      -71726567      -20250914       -6169383      109594558
    124.00000000      -10210732     -145707018       59196304       79245170
    128.00000000      -21911917      -42954846      -40016773       34930265
    132.00000000       83428905      -49794920     -106614321       69370225
    136.00000000       86044012      -82189451       -2469689      -18227492
    140.00000000        3844646      120891001     -105284640      -89135524
    144.00000000      163419539      -39662041      -30615937       22527695
    148.00000000      -94335351      128622090       34535564     -164730513
    152.00000000       84935010       11781744       -1824955       40781351
    156.00000000     -136593421       72445926       95950935     -118124109
    160.00000000       41094646      -47265763       16833611      138651489
    164.00000000     -175735627       -5327827      120600896      -98063168
    168.00000000       81016684      -47220906     -111958621      199849907
    172.00000000      -70435706      -90619949      119305461      -87035677
    176.00000000       51284722       55760689     -157551513      109214549
    180.00000000       32264579      -94331512       66017711      -46987489
    184.00000000       19208859       74617556     -117922316       37299039
    188.00000000       38862132      -38156522       54045208      -70689809
    192.00000000       -3049362      100220663      -82129811         683448
    196.00000000       29233190      -44853441       77774245      -34114275
    200.00000000      -77298026       95728587      -12797639      -34636661
    204.00000000       26699108      -39468057       30194830       34351466
    208.00000000      -69209493        4569711       40678598       -1721933
    212.00000000      -13964260      -15915577        2267278       27654133
    216.00000000        8187048      -40490054       -1483984       43144203
    220.00000000       -9341820      -19172544       -5592773        4470379
    224.00000000       26509416      -21399585      -29246969       21409957
    228.00000000       11700875        6271288      -26497506      -24307044
    232.00000000       53672458      -14780002      -26529754       21312503
    236.00000000      -27730112       40078759       14796923      -81093861
    240.00000000       56815752       22986303      -48266122       43701328
    244.00000000      -43246151       -6461935       80537036      -78721631
    248.00000000       -2320646       46807792      -42948598       35665449
    252.00000000       -9840836      -47799423       64943499      -20450328
    256.00000000      -21226215       26560603      -31042325       36929427
    260.00000000        -915353      -50122938       49930163      -15736580
    264.00000000       -9673380       28942662      -53038289       36966551
    268.00000000       31585857      -67795876       37181286        4679674
    272.00000000      -24646533       49582651      -44048959      -18607830
    276.00000000       62182092      -37698368       -5634126       22320093
    280.00000000      -22061305       30477997       -7123768      -32274616
    284.00000000       26778844        7681428       -7887760       -4119290
    288.00000000      -13867343       20902152        -680141      -14095677
    292.00000000        4673896       -2161975        8622079        1944598
    296.00000000      -24763786       16167559       13933185      -17493938
    300.00000000         237156        -807126       -2855097       18359670
    304.00000000      -11214016      -15546869       19292953       10358393
    308.00000000      -15685034        4708941       -1022466       -6980797
    312.00000000       14524590      -13720727      -15588970       25480152
    316.00000000       -6094829      -11252445       12563538      -12316513
    320.00000000        9823880       15188427      -26557716        6691163
    324.00000000       11984528       -9873151        5813728      -11966114
    328.00000000        3698571       16603213      -17821199        -928380
    332.00000000        -318771          31875       17887621      -20960771
    336.00000000       -4483263       23844014      -19766013        6969660
    340.00000000         984070      -22083557       31667550       -6333583
    344.00000000      -25911420       28459754       -6567515       -8874409
    348.00000000       15741801      -22816969       10700050       18135753
    352.00000000      -24809182        9128358        6482961       -5203560
    356.00000000       11425690      -14678297        -629759       13202246
    360.00000000      -10677555         585550       -3108779       -1899339
    364.00000000       15640882      -16409147       -4974069       12290512
    368.00000000       -9089374        6959731         264281      -14490226
    372.00000000       18282050         213445      -14170068       10817844
